m/z,Intensity,Time
1999.9999999999998, 2054.7403279135565, 25.263156524402742
2000.2543757721946, 2066.933121996114, 25.264756524402742
2000.5087678769871, 2079.521321198487, 25.26635652440274
2000.7631763143777, 2092.8986263080756, 25.26795652440274
2001.0176010843657, 2103.2746020383825, 25.26955652440274
2001.272042186952, 2106.2605924259465, 25.27115652440274
2001.5264996221358, 2102.57923441388, 25.27275652440274
2001.780973389917, 2096.85779050346, 25.27435652440274
2002.035463490297, 2092.5867334764976, 25.27595652440274
2002.2899699232742, 2085.9313154037563, 25.27755652440274
2002.5444926888495, 2082.5362852370727, 25.27915652440274
2002.7990317870224, 2082.491972594335, 25.28075652440274
2003.0535872177934, 2082.1545147765623, 25.28235652440274
2003.3081589811623, 2078.2567065480453, 25.28395652440274
2003.5627470771287, 2073.845894263218, 25.28555652440274
2003.8173515056933, 2073.978832191431, 25.28715652440274
2004.0719722668553, 2073.04485802911, 25.28875652440274
2004.3266093606155, 2078.012987012987, 25.29035652440274
2004.5812627869732, 2087.5163445478406, 25.29195652440274
2004.835932545929, 2098.44622831237, 25.29355652440274
2005.0906186374825, 2106.700310188499, 25.29515652440274
2005.3453210616337, 2109.3335037665743, 25.29675652440274
2005.6000398183833, 2111.6292395268774, 25.298356524402738
2005.85477490773, 2114.605003919965, 25.299956524402738
2006.1095263296752, 2118.047755394212, 25.301556524402738
2006.3642940842176, 2125.0355182874864, 25.303156524402738
2006.6190781713585, 2131.92613423322, 25.304756524402737
2006.873878591097, 2139.133756007771, 25.306356524402737
2007.128695343433, 2146.6583836111395, 25.307956524402737
2007.3835284283673, 2151.6708252377543, 25.309556524402737
2007.638377845899, 2159.657326925043, 25.311156524402737
2007.8932435960287, 2167.0558339298486, 25.312756524402737
2008.148125678756, 2174.9264410130545, 25.314356524402736
2008.4030240940817, 2178.277158537, 25.315956524402736
2008.6579388420048, 2176.9358489279743, 25.317556524402736
2008.912869922526, 2169.8032177795953, 25.319156524402736
2009.1678173356452, 2166.8956266830282, 25.320756524402736
2009.4227810813616, 2165.828714592494, 25.322356524402736
2009.6777611596765, 2173.0141800456763, 25.323956524402735
2009.9327575705886, 2185.849507447933, 25.325556524402735
2010.187770314099, 2203.0598561543443, 25.327156524402735
2010.442799390207, 2222.501175989365, 25.328756524402735
2010.697844798913, 2239.9347922418783, 25.330356524402735
2010.9529065402169, 2255.8668916385445, 25.331956524402734
2011.2079846141182, 2275.5843133244707, 25.333556524402734
2011.463079020618, 2294.050755019259, 25.335156524402734
2011.718189759715, 2311.405971980775, 25.336756524402734
2011.9733168314103, 2329.771858063197, 25.338356524402734
2012.2284602357029, 2346.832225517265, 25.339956524402734
2012.483619972594, 2357.8575518969214, 25.341556524402733
2012.7387960420826, 2360.6287964004496, 25.343156524402733
2012.993988444169, 2355.234584313325, 25.344756524402733
2013.2491971788534, 2346.750417561441, 25.346356524402733
2013.5044222461352, 2336.1290179636635, 25.347956524402733
2013.7596636460153, 2327.8936837440774, 25.349556524402733
2014.014921378493, 2323.007362716024, 25.351156524402732
2014.2701954435684, 2316.4593175853015, 25.352756524402732
2014.5254858412422, 2307.138323618638, 25.354356524402732
2014.7807925715133, 2291.3971094522276, 25.355956524402732
2015.0361156343824, 2273.58001840679, 25.35755652440273
2015.2914550298492, 2252.819545284112, 25.35915652440273
2015.5468107579145, 2231.0092033950295, 25.36075652440273
2015.802182818577, 2208.679040119984, 25.36235652440273
2016.0575712118375, 2184.213348331458, 25.36395652440273
2016.3129759376957, 2160.2572519344167, 25.36555652440273
2016.5683969961517, 2139.6978900364725, 25.36715652440273
2016.8238343872056, 2123.184613286976, 25.36875652440273
2017.0792881108575, 2108.990932951563, 25.37035652440273
2017.334758167107, 2097.515662814875, 25.37195652440273
2017.5902445559543, 2088.4315710536184, 25.37355652440273
2017.8457472774, 2079.630398472918, 25.37515652440273
2018.1012663314434, 2071.0678324300366, 25.37675652440273
2018.356801718084, 2060.4362068377814, 25.37835652440273
2018.612353437323, 2048.1854654531826, 25.37995652440273
2018.8679214891592, 2036.2159389167268, 25.38155652440273
2019.123505873594, 2020.8070695708495, 25.38315652440273
2019.3791065906262, 2011.3446160139076, 25.38475652440273
2019.6347236402562, 2006.0867505198219, 25.38635652440273
2019.8903570224843, 2003.3035756894026, 25.38795652440273
2020.14600673731, 2004.2477758462014, 25.389556524402728
2020.4016727847338, 2003.7535194464328, 25.391156524402728
2020.6573551647552, 2008.3262433104949, 25.392756524402728
2020.9130538773748, 2011.1469134539998, 25.394356524402728
2021.1687689225919, 2010.9083069161807, 25.395956524402727
2021.4245003004066, 2009.8959334628628, 25.397556524402727
2021.6802480108195, 2008.1745577257389, 25.399156524402727
2021.9360120538304, 2006.7923441388011, 25.400756524402727
2022.191792429439, 2007.114462964857, 25.402356524402727
2022.4475891376449, 2007.3615911647412, 25.403956524402727
2022.703402178449, 2012.8734021883631, 25.405556524402726
2022.959231551851, 2019.1129631523336, 25.407156524402726
2023.215077257851, 2021.9609026144462, 25.408756524402726
2023.4709392964485, 2020.4559770937724, 25.410356524402726
2023.7268176676441, 2017.788696867437, 25.411956524402726
2023.9827123714379, 2012.9330538228178, 25.413556524402726
2024.2386234078288, 2007.9819681630704, 25.415156524402725
2024.4945507768177, 2002.4837917987525, 25.416756524402725
2024.7504944784048, 1996.542489007056, 25.418356524402725
2025.0064545125895, 1994.4632034632034, 25.419956524402725
2025.2624308793715, 1994.9250775471248, 25.421556524402725
2025.518423578752, 1993.6553498994447, 25.423156524402724
2025.7744326107304, 1991.259058526775, 25.424756524402724
2026.0304579753065, 1984.6002317892085, 25.426356524402724
2026.2864996724802, 1976.479087841293, 25.427956524402724
2026.542557702252, 1965.4691004533524, 25.429556524402724
2026.7986320646214, 1952.3764188567334, 25.431156524402724
2027.0547227595885, 1943.3775437161266, 25.432756524402723
2027.310829787154, 1943.6740975559871, 25.434356524402723
2027.5669531473172, 1948.504175614412, 25.435956524402723
2027.823092840078, 1956.5230596175484, 25.437556524402723
2028.079248865437, 1964.8453147901964, 25.439156524402723
2028.335421223393, 1970.2258922180176, 25.440756524402723
2028.5916099139474, 1970.7337832770897, 25.442356524402722
2028.8478149370997, 1967.6216722909633, 25.443956524402722
2029.1040362928495, 1961.182704434673, 25.445556524402722
2029.360273981198, 1953.6751201554348, 25.447156524402722
2029.6165280021435, 1946.002215632137, 25.44875652440272
2029.872798355687, 1937.2879640044996, 25.45035652440272
2030.1290850418284, 1926.831884650783, 25.45195652440272
2030.3853880605677, 1917.925043460477, 25.45355652440272
2030.6417074119042, 1913.5619524832125, 25.45515652440272
2030.8980430958393, 1915.973582847599, 25.45675652440272
2031.1543951123722, 1921.4564202201998, 25.45835652440272
2031.4107634615025, 1930.1382895319903, 25.45995652440272
2031.6671481432309, 1942.3498312710908, 25.46155652440272
2031.9235491575569, 1953.06326481917, 25.46315652440272
2032.1799665044814, 1960.0936360227693, 25.46475652440272
2032.436400184003, 1964.9271227460204, 25.46635652440272
2032.692850196123, 1966.5360125438867, 25.46795652440272
2032.9493165408408, 1964.0101919078297, 25.46955652440272
2033.2057992181558, 1957.3956778130007, 25.47115652440272
2033.4622982280694, 1952.7036506800287, 25.47275652440272
2033.71881357058, 1948.3916896751546, 25.47435652440272
2033.9753452456894, 1942.3685789276346, 25.47595652440272
2034.2318932533958, 1937.6901864539664, 25.47755652440272
2034.4884575937, 1935.5614752701372, 25.47915652440272
2034.7450382666027, 1936.3062685346147, 25.480756524402718
2035.001635272103, 1940.1733987796977, 25.482356524402718
2035.2582486102012, 1950.385758598357, 25.483956524402718
2035.5148782808967, 1965.3463885196168, 25.485556524402718
2035.7715242841907, 1978.2856801990663, 25.487156524402717
2036.0281866200824, 1986.5312404131307, 25.488756524402717
2036.2848652885716, 1992.0635034257086, 25.490356524402717
2036.541560289659, 1992.4606128779355, 25.491956524402717
2036.798271623344, 1987.959470975219, 25.493556524402717
2037.0549992896272, 1982.4766336026173, 25.495156524402717
2037.3117432885074, 1978.8873095408526, 25.496756524402716
2037.5685036199861, 1975.1002829191807, 25.498356524402716
2037.8252802840625, 1968.6919930463241, 25.499956524402716
2038.082073280737, 1962.5512833623072, 25.501556524402716
2038.338882610009, 1958.4642942359478, 25.503156524402716
2038.5957082718792, 1956.7872311415622, 25.504756524402715
2038.852550266347, 1956.802570133279, 25.506356524402715
2039.1094085934124, 1962.305859494836, 25.507956524402715
2039.3662832530758, 1970.2395268773223, 25.509556524402715
2039.623174245337, 1978.5515560554936, 25.511156524402715
2039.8800815701961, 1981.118280669462, 25.512756524402715
2040.137005227653, 1980.820022497188, 25.514356524402714
2040.3939452177076, 1978.064116985377, 25.515956524402714
2040.6509015403606, 1973.6294440467675, 25.517556524402714
2040.9078741956107, 1967.8756178205003, 25.519156524402714
2041.1648631834594, 1962.3160854893138, 25.520756524402714
2041.4218685039052, 1959.1971571735353, 25.522356524402714
2041.6788901569491, 1959.2210178273172, 25.523956524402713
2041.9359281425907, 1961.356546340798, 25.525556524402713
2042.1929824608308, 1963.016566111054, 25.527156524402713
2042.4500531116685, 1966.8598357023552, 25.528756524402713
2042.7071400951033, 1970.7576439308723, 25.530356524402713
2042.9642434111365, 1971.8842076558608, 25.531956524402712
2043.221363059767, 1969.3464566929133, 25.533556524402712
2043.4784990409962, 1970.36905614071, 25.535156524402712
2043.7356513548225, 1975.3951324266284, 25.536756524402712
2043.9928200012473, 1982.781709104544, 25.53835652440271
2044.2500049802698, 1989.3229369056144, 25.53995652440271
2044.5072062918898, 1996.1266318982855, 25.54155652440271
2044.764423936108, 1998.2809080683098, 25.54315652440271
2045.0216579129233, 1994.4308211473565, 25.54475652440271
2045.2789082223371, 1987.0868527797666, 25.54635652440271
2045.5361748643486, 1980.3206531001806, 25.54795652440271
2045.7934578389581, 1975.6763472747723, 25.54955652440271
2046.0507571461653, 1975.5638613355147, 25.55115652440271
2046.30807278597, 1977.6346252173025, 25.55275652440271
2046.5654047583728, 1975.2877594846102, 25.55435652440271
2046.8227530633733, 1971.7478610628218, 25.55595652440271
2047.0801177009719, 1965.905409551079, 25.55755652440271
2047.337498671168, 1959.6232402767837, 25.55915652440271
2047.5948959739624, 1950.4931315403755, 25.56075652440271
2047.8523096093547, 1945.2727613593752, 25.56235652440271
2048.109739577344, 1944.0643896785623, 25.56395652440271
2048.3671858779317, 1945.0631284725769, 25.56555652440271
2048.624648511117, 1946.5868016497936, 25.56715652440271
2048.8821274769007, 1952.3167672222785, 25.56875652440271
2049.1396227752816, 1953.0939428026043, 25.57035652440271
2049.3971344062606, 1951.0112485939255, 25.571956524402708
2049.6546623698378, 1946.7674608855714, 25.573556524402708
2049.912206666012, 1945.3545693151991, 25.575156524402708
2050.169767294785, 1941.9646521457544, 25.576756524402708
2050.4273442561553, 1938.6838122507415, 25.578356524402707
2050.6849375501233, 1939.362136551113, 25.579956524402707
2050.942547176689, 1943.99451204963, 25.581556524402707
2051.200173135853, 1947.2225176398406, 25.583156524402707
2051.4578154276146, 1950.8339980229741, 25.584756524402707
2051.7154740519745, 1956.318539727988, 25.586356524402706
2051.973149008932, 1962.4439104202881, 25.587956524402706
2052.230840298487, 1965.588403722262, 25.589556524402706
2052.48854792064, 1965.7622456283873, 25.591156524402706
2052.746271875391, 1967.0251559464166, 25.592756524402706
2053.0040121627394, 1972.2233698060477, 25.594356524402706
2053.261768782686, 1976.4756791764667, 25.595956524402705
2053.5195417352306, 1980.9035347854242, 25.597556524402705
2053.7773310203725, 1984.8558816511572, 25.599156524402705
2054.0351366381124, 1987.4856665644072, 25.600756524402705
2054.2929585884503, 1986.152878617446, 25.602356524402705
2054.5507968713855, 1979.788901387327, 25.603956524402705
2054.808651486919, 1975.049152946791, 25.605556524402704
2055.0665224350505, 1974.6520434945637, 25.607156524402704
2055.32440971578, 1969.1947711081573, 25.608756524402704
2055.5823133291074, 1961.5252752496845, 25.610356524402704
2055.840233275032, 1953.7006851416304, 25.611956524402704
2056.0981695535547, 1945.9442683300952, 25.613556524402703
2056.356122164675, 1936.364215836657, 25.615156524402703
2056.6140911083935, 1925.6064696458402, 25.616756524402703
2056.8720763847095, 1919.1964754405703, 25.618356524402703
2057.1300779936237, 1915.1026689845587, 25.619956524402703
2057.388095935136, 1907.0667416572928, 25.621556524402703
2057.6461302092453, 1897.3145515901422, 25.623156524402702
2057.904180815953, 1891.2965538398603, 25.624756524402702
2058.1622477552582, 1890.475065616798, 25.626356524402702
2058.420331027162, 1894.9370078740153, 25.627956524402702
2058.6784306316626, 1901.386201724784, 25.6295565244027
2058.9365465687615, 1909.7289088863893, 25.6311565244027
2059.1946788384585, 1919.6004022224497, 25.6327565244027
2059.452827440753, 1927.0994648396222, 25.6343565244027
2059.7109923756448, 1932.1289497903676, 25.6359565244027
2059.969173643135, 1933.4617377373281, 25.6375565244027
2060.2273712432234, 1932.6385451818526, 25.6391565244027
2060.485585175909, 1932.7680744452393, 25.6407565244027
2060.743815441193, 1928.3436275011074, 25.6423565244027
2061.0020620390746, 1923.6942086784602, 25.6439565244027
2061.260324969554, 1921.7018440876705, 25.6455565244027
2061.5186042326313, 1919.4555339673452, 25.6471565244027
2061.776899828306, 1921.4052902478097, 25.6487565244027
2062.035211756579, 1921.937041960664, 25.6503565244027
2062.2935400174497, 1925.0150662985307, 25.6519565244027
2062.5518846109185, 1933.6423969731056, 25.6535565244027
2062.810245536985, 1944.139380304735, 25.6551565244027
2063.068622795649, 1956.4225040051813, 25.6567565244027
2063.3270163869115, 1964.6084125847906, 25.6583565244027
2063.5854263107713, 1970.9110338480418, 25.6599565244027
2063.843852567229, 1975.41899308041, 25.661556524402698
2064.1022951562845, 1976.4484098578582, 25.663156524402698
2064.360754077938, 1976.596686777789, 25.664756524402698
2064.619229332189, 1978.0317346695301, 25.666356524402698
2064.8777209190384, 1981.4761904761906, 25.667956524402697
2065.1362288384853, 1981.5954937451, 25.669556524402697
2065.39475309053, 1977.321028053312, 25.671156524402697
2065.6532936751723, 1970.9025121859768, 25.672756524402697
2065.9118505924125, 1957.1809319289632, 25.674356524402697
2066.170423842251, 1944.040529024781, 25.675956524402697
2066.4290134246867, 1934.5695538057741, 25.677556524402696
2066.687619339721, 1932.214166411017, 25.679156524402696
2066.9462415873527, 1938.564508981832, 25.680756524402696
2067.2048801675824, 1949.634148004227, 25.682356524402696
2067.4635350804097, 1963.8499846610086, 25.683956524402696
2067.722206325835, 1973.7282953267209, 25.685556524402696
2067.980893903858, 1976.6819033984389, 25.687156524402695
2068.239597814479, 1979.4974605447048, 25.688756524402695
2068.498318057698, 1981.348365545216, 25.690356524402695
2068.7570546335146, 1982.0352115076525, 25.691956524402695
2069.015807541929, 1980.8711524695777, 25.693556524402695
2069.2745767829415, 1979.4940518798787, 25.695156524402694
2069.533362356551, 1978.3674881548893, 25.696756524402694
2069.7921642627593, 1974.9315540102934, 25.698356524402694
2070.050982501565, 1976.39216688823, 25.699956524402694
2070.309817072969, 1989.145686334663, 25.701556524402694
2070.5686679769706, 2011.5951528786177, 25.703156524402694
2070.8275352135697, 2040.0984081535269, 25.704756524402693
2071.086418782767, 2069.225449091591, 25.706356524402693
2071.345318684562, 2096.4913590346664, 25.707956524402693
2071.6042349189543, 2121.6694617718235, 25.709556524402693
2071.863167485945, 2141.446535092204, 25.711156524402693
2072.1221163855334, 2158.0399154651122, 25.712756524402693
2072.3810816177197, 2179.71731942598, 25.714356524402692
2072.6400631825036, 2207.567815386712, 25.715956524402692
2072.899061079886, 2238.8746974809965, 25.717556524402692
2073.1580753098656, 2271.197361693424, 25.719156524402692
2073.4171058724432, 2303.577973207894, 25.72075652440269
2073.6761527676185, 2340.004669870811, 25.72235652440269
2073.935215995392, 2376.458635852337, 25.72395652440269
2074.1942955557633, 2411.0599925009374, 25.72555652440269
2074.453391448732, 2451.176568837986, 25.72715652440269
2074.712503674299, 2495.9238163411387, 25.72875652440269
2074.9716322324634, 2541.112485939257, 25.73035652440269
2075.2307771232263, 2587.581109179534, 25.73195652440269
2075.4899383465863, 2633.270852507073, 25.73355652440269
2075.7491159025444, 2678.9333265160035, 25.73515652440269
2076.0083097911006, 2714.516378634489, 25.73675652440269
2076.2675200122544, 2741.218154548864, 25.73835652440269
2076.5267465660063, 2763.502300848758, 25.73995652440269
2076.7859894523554, 2782.8839690493232, 25.74155652440269
2077.045248671303, 2798.778573132904, 25.74315652440269
2077.304524222848, 2813.101782731704, 25.74475652440269
2077.5638161069905, 2822.477315335583, 25.74635652440269
2077.823124323732, 2829.546886184682, 25.74795652440269
2078.08244887307, 2823.034632034632, 25.74955652440269
2078.341789755007, 2807.395677813001, 25.75115652440269
2078.601146969541, 2788.4366840508574, 25.752756524402688
2078.860520516673, 2765.0975559873195, 25.754356524402688
2079.119910396403, 2742.007260456079, 25.755956524402688
2079.379316608731, 2717.441013055186, 25.757556524402688
2079.638739153657, 2692.864539659815, 25.759156524402687
2079.89817803118, 2665.2850325527484, 25.760756524402687
2080.157633241302, 2627.4488529842856, 25.762356524402687
2080.417104784021, 2582.587415209462, 25.763956524402687
2080.676592659338, 2535.2154957902985, 25.765556524402687
2080.9360968672527, 2488.6309779459384, 25.767156524402687
2081.1956174077654, 2452.0304393768956, 25.768756524402686
2081.455154280876, 2425.5979479837742, 25.770356524402686
2081.7147074865843, 2406.69519719126, 25.771956524402686
2081.974277024891, 2386.3028598697892, 25.773556524402686
2082.2338628957946, 2362.668882298804, 25.775156524402686
2082.493465099297, 2337.1788867300675, 25.776756524402685
2082.7530836353963, 2312.5325357057636, 25.778356524402685
2083.0127185040938, 2290.4716569519715, 25.779956524402685
2083.272369705389, 2274.8446330572306, 25.781556524402685
2083.532037239282, 2262.2291645362507, 25.783156524402685
2083.791721105773, 2250.186351706036, 25.784756524402685
2084.051421304862, 2238.5491699901145, 25.786356524402684
2084.311137836549, 2229.11398575178, 25.787956524402684
2084.570870700833, 2224.897467362034, 25.789556524402684
2084.8306198977157, 2222.5403756348633, 25.791156524402684
2085.0903854271955, 2217.740975559873, 25.792756524402684
2085.350167289274, 2213.812489347922, 25.794356524402684
2085.60996548395, 2205.0300644237655, 25.795956524402683
2085.869780011223, 2195.9834679755936, 25.797556524402683
2086.129610871095, 2186.3079728670277, 25.799156524402683
2086.3894580635642, 2177.3227323857245, 25.800756524402683
2086.6493215886317, 2171.325186624399, 25.802356524402683
2086.9092014462967, 2167.1427548829124, 25.803956524402683
2087.1690976365594, 2165.9838088420765, 25.805556524402682
2087.4290101594206, 2171.367794934724, 25.807156524402682
2087.688939014879, 2179.4957562122913, 25.808756524402682
2087.9488842029355, 2187.777107407028, 25.810356524402682
2088.2088457235895, 2194.3268568701637, 25.81195652440268
2088.4688235768417, 2197.1390053516034, 25.81355652440268
