m/z,Intensity,Time
1999.9999999999995, 1378.2994852916106, 25.28194054615755
2000.254985513633, 1376.8013771005892, 25.28354054615755
2000.5099873338506, 1376.1111224733268, 25.28514054615755
2000.7650054606522, 1377.126904591471, 25.28674054615755
2001.0200398940376, 1382.5569076592694, 25.28834054615755
2001.2750906340066, 1388.9208848893886, 25.28994054615755
2001.5301576805598, 1401.0489143402528, 25.29154054615755
2001.7852410336968, 1412.2634216177519, 25.29314054615755
2002.0403406934176, 1419.0347342945768, 25.29474054615755
2002.2954566597223, 1416.9009101135084, 25.29634054615755
2002.550588932611, 1413.6285918805604, 25.297940546157548
2002.8057375120834, 1408.1457545079593, 25.299540546157548
2003.06090239814, 1404.1985206394654, 25.301140546157548
2003.3160835907802, 1402.9816272965877, 25.302740546157548
2003.571281090004, 1407.2117803456385, 25.304340546157547
2003.8264948958122, 1412.7849473361282, 25.305940546157547
2004.081725008204, 1421.9508470532094, 25.307540546157547
2004.3369714271798, 1432.5296383406617, 25.309140546157547
2004.5922341527394, 1440.1105089136586, 25.310740546157547
2004.847513184883, 1446.5852677506218, 25.312340546157547
2005.1028085236103, 1452.6237174898592, 25.313940546157546
2005.3581201689217, 1461.1811705355012, 25.315540546157546
2005.6134481208164, 1470.5209121587075, 25.317140546157546
2005.8687923792957, 1480.56454306848, 25.318740546157546
2006.1241529443585, 1493.2635238776968, 25.320340546157546
2006.3795298160053, 1504.6620990557997, 25.321940546157546
2006.6349229942357, 1511.0925452500255, 25.323540546157545
2006.8903324790504, 1521.8468827760166, 25.325140546157545
2007.1457582704488, 1536.722296076627, 25.326740546157545
2007.401200368431, 1555.8943313903947, 25.328340546157545
2007.656658772997, 1578.2244946654394, 25.329940546157545
2007.912133484147, 1599.7127177284656, 25.331540546157544
2008.1676245018812, 1621.517946620309, 25.333140546157544
2008.4231318261989, 1639.8719023758395, 25.334740546157544
2008.6786554571004, 1655.8312710911136, 25.336340546157544
2008.934195394586, 1668.9035006987765, 25.337940546157544
2009.1897516386555, 1677.215529876947, 25.339540546157544
2009.4453241893088, 1678.8755496472033, 25.341140546157543
2009.7009130465456, 1677.6262739884785, 25.342740546157543
2009.9565182103668, 1674.260217472816, 25.344340546157543
2010.2121396807718, 1670.1050550499372, 25.345940546157543
2010.4677774577606, 1665.7811637181717, 25.347540546157543
2010.723431541333, 1659.306404881208, 25.349140546157543
2010.9791019314896, 1650.1541398234308, 25.350740546157542
2011.23478862823, 1636.0593107679724, 25.352340546157542
2011.4904916315545, 1618.8591880560382, 25.353940546157542
2011.7462109414623, 1603.9428707775166, 25.355540546157542
2012.0019465579544, 1591.930735930736, 25.35714054615754
2012.2576984810307, 1584.6873231755121, 25.35874054615754
2012.5134667106902, 1581.478065241845, 25.36034054615754
2012.7692512469343, 1577.0519139652997, 25.36194054615754
2013.0250520897614, 1568.7023894740428, 25.36354054615754
2013.2808692391732, 1553.0770699117156, 25.36514054615754
2013.5367026951683, 1530.936087534513, 25.36674054615754
2013.7925524577477, 1504.933087909466, 25.36834054615754
2014.0484185269104, 1476.5389099089887, 25.36994054615754
2014.3043009026574, 1451.2432082353341, 25.37154054615754
2014.5601995849881, 1431.0639124654874, 25.37314054615754
2014.8161145739032, 1415.1693083819068, 25.37474054615754
2015.0720458694016, 1402.7481337560075, 25.37634054615754
2015.3279934714838, 1392.6329208848892, 25.37794054615754
2015.58395738015, 1381.5070388928655, 25.37954054615754
2015.8399375954002, 1372.2456965606573, 25.38114054615754
2016.0959341172343, 1365.123291406756, 25.38274054615754
2016.3519469456521, 1362.326481917033, 25.38434054615754
2016.6079760806542, 1366.745815863926, 25.38594054615754
2016.8640215222397, 1373.3415823022124, 25.38754054615754
2017.1200832704094, 1382.5364556703141, 25.389140546157538
2017.376161325163, 1387.1415618502235, 25.390740546157538
2017.6322556865002, 1385.0827282953267, 25.392340546157538
2017.8883663544214, 1379.1397211712172, 25.393940546157538
2018.1444933289263, 1368.6836418175003, 25.395540546157537
2018.4006366100155, 1358.3570917271707, 25.397140546157537
2018.6567961976884, 1354.9893308790947, 25.398740546157537
2018.9129720919452, 1353.3293111088387, 25.400340546157537
2019.1691642927854, 1355.8755837338517, 25.401940546157537
2019.4253728002097, 1358.5616116167298, 25.403540546157537
2019.6815976142184, 1365.3107679721854, 25.405140546157536
2019.9378387348108, 1372.071854654532, 25.406740546157536
2020.1940961619866, 1373.1984183795207, 25.408340546157536
2020.4503698957467, 1370.9316562702388, 25.409940546157536
2020.7066599360905, 1366.130551862835, 25.411540546157536
2020.9629662830182, 1356.8351228823667, 25.413140546157535
2021.2192889365301, 1350.8529161127585, 25.414740546157535
2021.4756278966254, 1344.0679687766303, 25.416340546157535
2021.7319831633044, 1341.724511708764, 25.417940546157535
2021.9883547365678, 1341.3666019020352, 25.419540546157535
2022.2447426164154, 1337.6375225824045, 25.421140546157535
2022.5011468028458, 1329.5981865903127, 25.422740546157534
2022.757567295861, 1316.8344411494018, 25.424340546157534
2023.0140040954595, 1300.8409857858676, 25.425940546157534
2023.2704572016423, 1288.0925793366741, 25.427540546157534
2023.5269266144085, 1273.3074956539522, 25.429140546157534
2023.7834123337589, 1262.4832804990283, 25.430740546157534
2024.0399143596935, 1258.2122234720657, 25.432340546157533
2024.2964326922115, 1257.5509424958245, 25.433940546157533
2024.5529673313133, 1260.0921021235981, 25.435540546157533
2024.8095182769994, 1262.6741657292837, 25.437140546157533
2025.0660855292692, 1264.9784231516514, 25.438740546157533
2025.322669088123, 1268.2336980604698, 25.440340546157532
2025.57926895356, 1269.256297508266, 25.441940546157532
2025.8358851255816, 1270.636806762791, 25.443540546157532
2026.0925176041867, 1272.8047175921192, 25.445140546157532
2026.349166389376, 1274.1835225142315, 25.446740546157532
2026.6058314811487, 1273.174557725739, 25.44834054615753
2026.8625128795056, 1268.441626614855, 25.44994054615753
2027.1192105844468, 1266.6571905784504, 25.45154054615753
2027.3759245959714, 1266.8139891604458, 25.45314054615753
2027.6326549140797, 1269.268227835157, 25.45474054615753
2027.8894015387723, 1272.1485496131165, 25.45634054615753
2028.1461644700487, 1273.319425980843, 25.45794054615753
2028.402943707909, 1279.2590244401267, 25.45954054615753
2028.6597392523524, 1281.0230084875755, 25.46114054615753
2028.9165511033807, 1283.8658349524494, 25.46274054615753
2029.1733792609923, 1287.233595800525, 25.46434054615753
2029.4302237251882, 1287.6733135630775, 25.46594054615753
2029.6870844959674, 1285.3860994648398, 25.46754054615753
2029.9439615733309, 1282.280805808365, 25.46914054615753
2030.2008549572781, 1281.6757678017518, 25.47074054615753
2030.4577646478097, 1287.199509152265, 25.47234054615753
2030.7146906449245, 1291.9392575928007, 25.47394054615753
2030.9716329486232, 1297.0914544772809, 25.47554054615753
2031.2285915589061, 1300.7472475031527, 25.47714054615753
2031.4855664757729, 1300.454102328118, 25.47874054615753
2031.7425576992234, 1298.9917851177693, 25.480340546157528
2031.9995652292578, 1299.6036404540341, 25.481940546157528
2032.256589065876, 1301.4017111497426, 25.483540546157528
2032.5136292090783, 1298.7889695606227, 25.485140546157528
2032.7706856588645, 1297.994750656168, 25.486740546157527
2033.027758415234, 1294.8485530217813, 25.488340546157527
2033.2848474781883, 1294.330435968231, 25.489940546157527
2033.541952847726, 1296.2375839383712, 25.491540546157527
2033.7990745238474, 1300.2785560895798, 25.493140546157527
2034.0562125065526, 1303.2867027985135, 25.494740546157526
2034.313366795842, 1304.0724000409036, 25.496340546157526
2034.5705373917153, 1296.827282953267, 25.497940546157526
2034.8277242941724, 1288.4061765006647, 25.499540546157526
2035.0849275032133, 1282.613150628899, 25.501140546157526
2035.342147018838, 1276.5798138869004, 25.502740546157526
2035.599382841047, 1273.7318744247877, 25.504340546157525
2035.8566349698397, 1274.2994171183148, 25.505940546157525
2036.1139034052158, 1273.8511776936973, 25.507540546157525
2036.371188147176, 1274.972628421447, 25.509140546157525
2036.6284891957207, 1274.6607355898695, 25.510740546157525
2036.8858065508487, 1278.0250877731194, 25.512340546157525
2037.1431402125604, 1283.9118519276003, 25.513940546157524
2037.4004901808564, 1289.6554521593896, 25.515540546157524
2037.6578564557362, 1292.7999454613632, 25.517140546157524
2037.9152390371996, 1294.226471691039, 25.518740546157524
2038.1726379252468, 1289.5787572008046, 25.520340546157524
2038.4300531198783, 1284.8509390871595, 25.521940546157523
2038.6874846210933, 1278.705116405904, 25.523540546157523
2038.9449324288926, 1274.4647373623752, 25.525140546157523
2039.2023965432757, 1267.1667859699357, 25.526740546157523
2039.4598769642425, 1270.1289157037186, 25.528340546157523
2039.7173736917932, 1277.1950778879914, 25.529940546157523
2039.9748867259277, 1284.2339707536557, 25.531540546157522
2040.2324160666465, 1290.7803115519653, 25.533140546157522
2040.4899617139486, 1298.318573814637, 25.534740546157522
2040.747523667835, 1305.6216382043153, 25.536340546157522
2041.005101928305, 1309.4700207928554, 25.53794054615752
2041.262696495359, 1312.7133653747828, 25.53954054615752
2041.5203073689968, 1319.2614105055052, 25.54114054615752
2041.7779345492183, 1325.6833350376658, 25.54274054615752
2042.0355780360242, 1327.3876674506596, 25.54434054615752
2042.2932378294138, 1328.2227903330265, 25.54594054615752
2042.5509139293868, 1334.3260047039576, 25.54754054615752
2042.8086063359444, 1342.0534478644713, 25.54914054615752
2043.0663150490855, 1345.2899751167467, 25.55074054615752
2043.3240400688107, 1348.8281692061219, 25.55234054615752
2043.5817813951194, 1347.8447694038243, 25.55394054615752
2043.8395390280118, 1343.1220642874187, 25.55554054615752
2044.0973129674885, 1337.1262228585063, 25.55714054615752
2044.3551032135495, 1334.4044039949551, 25.55874054615752
2044.6129097661933, 1337.0341889082047, 25.56034054615752
2044.8707326254219, 1342.2204724409448, 25.56194054615752
2045.1285717912342, 1343.2464805535672, 25.56354054615752
2045.38642726363, 1342.6993898489961, 25.56514054615752
2045.6442990426099, 1337.4585676790402, 25.56674054615752
2045.9021871281736, 1327.242799195555, 25.56834054615752
2046.1600915203212, 1317.042369703787, 25.569940546157518
2046.418012219053, 1307.8338616763813, 25.571540546157518
2046.6759492243682, 1303.746872550022, 25.573140546157518
2046.9339025362676, 1304.086034700208, 25.574740546157518
2047.1918721547509, 1306.9561304836895, 25.576340546157518
2047.449858079818, 1311.6822442649216, 25.577940546157517
2047.7078603114683, 1313.8978764018136, 25.579540546157517
2047.9658788497034, 1313.9677540307462, 25.581140546157517
2048.2239136945223, 1314.1296656099805, 25.582740546157517
2048.4819648459247, 1312.5361148038314, 25.584340546157517
2048.740032303911, 1314.1876129120221, 25.585940546157516
2048.9981160684815, 1314.4023587960594, 25.587540546157516
2049.2562161396354, 1315.6857211030438, 25.589140546157516
2049.514332517374, 1317.3218802195179, 25.590740546157516
2049.7724652016955, 1318.4160616286597, 25.592340546157516
2050.0306141926008, 1316.4100623785662, 25.593940546157516
2050.2887794900907, 1313.8382247673585, 25.595540546157515
2050.5469610941645, 1310.6136278419742, 25.597140546157515
2050.805159004822, 1309.1871016122982, 25.598740546157515
2051.063373222063, 1308.234379793435, 25.600340546157515
2051.3216037458883, 1308.3298224085624, 25.601940546157515
2051.5798505762973, 1310.5011419027164, 25.603540546157515
2051.8381137132906, 1311.4504550567544, 25.605140546157514
2052.0963931568667, 1312.871868289191, 25.606740546157514
2052.354688907028, 1313.73085182534, 25.608340546157514
2052.6130009637723, 1315.3414459556195, 25.609940546157514
2052.871329327101, 1316.6503732487984, 25.611540546157514
2053.129673997013, 1318.4603742713978, 25.613140546157513
2053.3880349735095, 1318.4194702934863, 25.614740546157513
2053.6464122565894, 1313.9813886900502, 25.616340546157513
2053.9048058462536, 1307.0208951153834, 25.617940546157513
2054.163215742501, 1300.6688482121551, 25.619540546157513
2054.421641945333, 1290.8075808705728, 25.621140546157513
2054.6800844547483, 1283.2420492892934, 25.622740546157512
2054.938543270748, 1280.1128949790366, 25.624340546157512
2055.197018393331, 1281.2582063605687, 25.625940546157512
2055.4555098224987, 1287.6068445989706, 25.627540546157512
2055.7140175582495, 1292.3755666905274, 25.62914054615751
2055.972541600585, 1297.3164263557965, 25.63074054615751
2056.2310819495033, 1301.638613355149, 25.63234054615751
2056.489638605006, 1304.7353853495586, 25.63394054615751
2056.7482115670928, 1308.2173364693053, 25.63554054615751
2057.0068008357634, 1314.9886491461293, 25.63714054615751
2057.265406411017, 1319.8562225176397, 25.63874054615751
2057.5240282928557, 1328.0455397620751, 25.64034054615751
2057.782666481278, 1329.4465010055558, 25.64194054615751
2058.041320976284, 1327.7046732794763, 25.64354054615751
2058.299991777874, 1326.1469134539998, 25.64514054615751
2058.5586788860473, 1326.6224221972254, 25.64674054615751
2058.817382300805, 1325.6441353921668, 25.64834054615751
2059.0761020221466, 1327.1132699321677, 25.64994054615751
2059.334838050072, 1327.8461328697551, 25.65154054615751
2059.593590384581, 1327.1047482701028, 25.65314054615751
2059.852359025674, 1323.3705559532332, 25.65474054615751
2060.1111439733513, 1321.7003101884995, 25.65634054615751
2060.3699452276123, 1321.3577393734874, 25.65794054615751
2060.6287627884567, 1319.7164672597746, 25.65954054615751
2060.8875966558853, 1318.3768619831615, 25.661140546157508
2061.146446829898, 1318.939291679449, 25.662740546157508
2061.4053133104944, 1317.9661178716294, 25.664340546157508
2061.6641960976744, 1315.8339980229744, 25.665940546157508
2061.9230951914387, 1313.8348161025324, 25.667540546157507
2062.182010591787, 1312.573610116917, 25.669140546157507
2062.4409422987187, 1309.1240413130179, 25.670740546157507
2062.6998903122344, 1306.5181170535504, 25.672340546157507
2062.958854632334, 1305.0285305245934, 25.673940546157507
2063.2178352590176, 1306.293145175035, 25.675540546157507
2063.4768321922847, 1309.568872072809, 25.677140546157506
2063.735845432136, 1315.6771994409787, 25.678740546157506
2063.9948749785713, 1320.0079081023962, 25.680340546157506
2064.2539208315907, 1322.2780788765042, 25.681940546157506
2064.5129829911934, 1321.6389542216314, 25.683540546157506
2064.77206145738, 1323.663701128268, 25.685140546157506
2065.0311562301504, 1324.4170160548115, 25.686740546157505
2065.2902673095055, 1330.1418686300574, 25.688340546157505
2065.5493946954434, 1335.1526059242594, 25.689940546157505
2065.8085383879657, 1337.7039915465111, 25.691540546157505
2066.0676983870717, 1337.8539727988546, 25.693140546157505
2066.326874692762, 1339.6094351842382, 25.694740546157504
2066.586067305036, 1340.306507141153, 25.696340546157504
2066.845276223894, 1342.6278078876505, 25.697940546157504
2067.104501449335, 1350.6875958686983, 25.699540546157504
2067.363742981361, 1363.2229607662678, 25.701140546157504
2067.6230008199705, 1379.178920816716, 25.702740546157504
2067.882274965164, 1396.0262467191599, 25.704340546157503
2068.1415654169405, 1415.0892047584957, 25.705940546157503
2068.400872175302, 1438.561270750247, 25.707540546157503
2068.6601952402466, 1465.2937246480553, 25.709140546157503
2068.919534611776, 1495.2780447898558, 25.710740546157503
2069.178890289888, 1532.3353444455804, 25.712340546157503
2069.4382622745848, 1577.0382793059957, 25.713940546157502
2069.6976505658654, 1633.6630193953026, 25.715540546157502
2069.95705516373, 1693.0555953233118, 25.717140546157502
2070.2164760681776, 1755.1359034666118, 25.718740546157502
2070.47591327921, 1816.384497392371, 25.7203405461575
2070.735366796826, 1875.8128643010534, 25.7219405461575
2070.994836621026, 1927.3177898217266, 25.7235405461575
2071.254322751809, 1974.3692947472468, 25.7251405461575
2071.5138251891767, 2018.2217677335789, 25.7267405461575
2071.773343933128, 2061.9634591130653, 25.7283405461575
2072.032878983664, 2105.2841803865426, 25.7299405461575
2072.2924303407826, 2152.5913351740123, 25.7315405461575
2072.5519980044855, 2199.1519923645906, 25.7331405461575
2072.8115819747727, 2247.473224937791, 25.7347405461575
2073.0711822516437, 2295.095681221665, 25.7363405461575
2073.330798835098, 2342.897092408903, 25.7379405461575
2073.5904317251366, 2386.6251491290855, 25.7395405461575
2073.8500809217594, 2429.674881548897, 25.7411405461575
2074.1097464249656, 2466.72025087773, 25.7427405461575
2074.3694282347556, 2494.8553703514326, 25.7443405461575
2074.62912635113, 2506.1124859392567, 25.7459405461575
2074.888840774088, 2504.7865153219477, 25.7475405461575
2075.1485715036297, 2490.61839997273, 25.7491405461575
2075.4083185397553, 2467.292906568497, 25.7507405461575
2075.668081882465, 2441.1586733476493, 25.752340546157498
2075.9278615317585, 2412.084466714388, 25.753940546157498
2076.187657487636, 2377.595596005044, 25.755540546157498
2076.4474697500973, 2338.5714967447243, 25.757140546157498
2076.707298319142, 2293.5225824044705, 25.758740546157497
2076.9671431947713, 2246.1131676722216, 25.760340546157497
2077.227004376984, 2194.6048334867223, 25.761940546157497
2077.486881865781, 2144.0441081228473, 25.763540546157497
2077.746775661161, 2096.203497290111, 25.765140546157497
2078.006685763126, 2045.5780072945422, 25.766740546157497
2078.2666121716743, 1996.3449568803903, 25.768340546157496
2078.5265548868065, 1948.2947131608553, 25.769940546157496
2078.7865139085225, 1904.3058935814843, 25.771540546157496
2079.0464892368227, 1868.6700071581963, 25.773140546157496
2079.3064808717063, 1839.4764972560251, 25.774740546157496
2079.5664888131746, 1819.2733408323961, 25.776340546157495
2079.8265130612253, 1800.7796298190003, 25.777940546157495
2080.0865536158612, 1777.2956335003578, 25.779540546157495
2080.3466104770805, 1756.3868834577493, 25.781140546157495
2080.606683644884, 1736.2791696492488, 25.782740546157495
2080.866773119271, 1718.4688959334633, 25.784340546157495
2081.126878900242, 1702.8197157173536, 25.785940546157494
2081.387000987797, 1689.713399461431, 25.787540546157494
2081.647139381936, 1679.2198247946283, 25.789140546157494
2081.907294082658, 1665.38746293077, 25.790740546157494
2082.167465089965, 1647.2704093806456, 25.792340546157494
2082.427652403855, 1635.2770221904077, 25.793940546157494
2082.68785602433, 1623.2393223574322, 25.795540546157493
2082.948075951387, 1610.7533830998395, 25.797140546157493
2083.2083121850296, 1597.0096465214576, 25.798740546157493
2083.4685647252554, 1586.054197770733, 25.800340546157493
2083.7288335720655, 1572.7910829328152, 25.801940546157493
2083.989118725459, 1560.2915090159186, 25.803540546157492
2084.2494201854365, 1548.5128677097177, 25.805140546157492
2084.509737951998, 1542.3039847291814, 25.806740546157492
2084.7700720251432, 1538.276647237277, 25.808340546157492
2085.0304224048723, 1537.6562702389472, 25.809940546157492
2085.2907890911856, 1542.6567815386713, 25.81154054615749
2085.5511720840823, 1549.501380509255, 25.81314054615749
2085.811571383563, 1552.518048880254, 25.81474054615749
2086.071986989628, 1556.4465350922042, 25.81634054615749
2086.3324189022765, 1556.2403108702324, 25.81794054615749
2086.592867121509, 1554.9961482087467, 25.81954054615749
2086.8533316473254, 1551.589187715172, 25.82114054615749
2087.1138124797253, 1544.7514060742405, 25.82274054615749
2087.3743096187095, 1536.3422299485292, 25.82434054615749
2087.634823064277, 1526.2236084125846, 25.82594054615749
2087.8953528164293, 1516.8446671438799, 25.82754054615749
2088.155898875165, 1513.4871322902823, 25.82914054615749
2088.4164612404843, 1516.1953164945292, 25.83074054615749
